39 62
39 72
47 54
47 79
56 49
57 80
65 44
67 84
69 94
69 252
69 262
74 39
74 232
74 242
74 271
74 281
75 102
79 222
79 290
79 300
82 110
82 310
83 34
84 207
84 320
89 192
89 329
89 339
90 26
90 117
94 127
94 162
94 172
94 182
95 347
99 142
99 152
99 357
100 24
104 366
109 375
110 24
115 383
120 27
120 392
129 32
129 397
134 406
139 36
139 415
145 44
148 420
149 562
153 50
157 60
157 425
157 569
159 557
162 69
165 432
167 565
169 77
169 554
172 440
172 574
174 86
175 96
175 106
175 135
175 145
175 155
177 165
179 551
179 582
180 115
180 125
182 444
185 172
187 589
189 182
189 552
190 450
194 191
196 458
197 590
199 532
199 542
199 552
200 199
205 208
205 463
207 590
209 527
209 540
213 470
215 209
217 589
219 524
220 478
224 214
227 589
228 485
229 524
232 495
234 214
237 504
237 585
238 519
243 219
246 580
253 220
256 580
260 570
263 224
268 563
272 229
278 560
282 229
285 239
288 560
295 242
295 540
295 550
300 520
300 530
303 249
305 505
310 490
312 254
319 262
320 485
329 266
329 490
335 274
335 480
343 280
345 480
352 285
354 485
357 294
364 485
366 299
374 306
374 485
380 314
383 490
385 323
393 330
393 490
397 340
402 495
405 347
412 355
412 495
417 364
422 499
424 372
429 381
429 507
433 391
437 514
440 399
444 522
449 531
450 402
457 410
459 535
462 419
462 545
470 552
471 424
474 562
480 429
484 565
488 435
490 573
497 440
498 580
505 447
508 580
514 452
518 580
524 456
528 580
530 464
537 575
539 469
546 570
547 475
552 484
555 565
561 489
563 558
565 499
568 548
570 508
575 517
575 527
575 537
