88 382
88 392
88 397
88 402
88 407
88 412
89 387
89 417
92 378
92 421
93 327
93 335
93 340
93 352
93 367
93 372
94 345
95 425
97 323
97 355
97 364
99 428
100 319
103 431
105 318
108 431
110 318
111 435
114 315
116 436
119 313
120 439
124 310
125 441
129 308
130 441
134 305
134 444
139 303
139 446
144 303
144 446
149 303
149 446
152 450
154 303
157 451
159 303
160 455
163 459
163 464
163 469
164 303
164 474
169 303
169 476
174 303
174 476
179 303
179 476
184 303
184 476
189 303
189 476
193 479
194 303
194 484
198 487
199 304
202 308
202 490
205 494
207 308
209 497
212 308
212 501
217 308
217 500
220 504
222 308
225 506
227 308
228 512
230 506
232 308
232 515
235 519
237 308
239 522
242 308
242 526
245 522
247 308
250 524
252 308
254 527
257 308
257 531
260 535
262 308
264 538
267 308
268 541
271 545
272 308
274 549
277 308
279 551
280 312
284 551
285 313
289 551
290 315
293 319
293 554
294 559
296 323
299 561
300 326
304 329
304 562
307 333
307 566
310 337
310 570
314 573
315 338
318 576
320 340
321 580
324 343
326 581
328 586
328 917
328 927
328 932
329 344
329 937
331 349
331 354
331 590
332 913
332 920
332 941
333 887
333 892
333 908
335 945
336 354
336 591
336 903
337 883
337 895
338 872
338 877
339 948
340 357
340 594
342 868
343 951
344 360
345 592
347 364
347 868
348 596
348 862
348 951
351 600
351 955
352 363
352 858
354 959
355 854
356 601
357 363
358 962
360 367
360 604
360 853
362 965
363 848
364 370
364 607
366 844
367 374
367 611
367 966
369 840
370 615
371 377
372 966
373 619
373 837
374 624
374 629
375 380
377 833
377 966
378 384
378 632
378 637
378 642
381 388
381 393
382 645
382 834
382 965
383 653
383 658
383 664
383 669
384 674
385 396
386 961
387 834
388 677
388 682
388 687
390 394
391 837
391 961
392 690
395 393
395 957
396 838
397 691
399 390
399 696
400 841
400 956
402 700
403 822
403 834
404 388
405 829
405 952
407 701
407 818
408 377
408 382
408 708
408 807
408 812
409 713
410 951
412 373
412 803
413 716
413 777
415 799
415 951
417 373
417 773
417 780
418 716
418 721
418 726
418 787
418 792
420 369
420 769
420 951
421 730
423 735
423 762
424 365
425 740
425 951
426 396
427 758
428 747
428 752
429 363
430 741
430 947
434 364
435 949
439 360
440 951
443 955
444 358
445 960
449 358
450 960
454 358
455 956
459 358
460 952
464 358
465 951
469 358
470 951
474 355
475 951
479 354
479 954
482 358
484 954
485 362
486 946
490 359
491 946
495 360
495 942
499 939
500 359
501 931
505 358
505 927
509 924
510 360
511 911
512 920
513 364
514 915
516 901
517 910
518 364
519 905
520 897
521 368
521 886
521 891
525 364
525 882
526 871
526 876
530 365
531 875
534 368
536 876
539 368
540 879
544 365
544 882
547 886
549 363
550 890
554 363
554 893
558 896
559 360
563 895
564 358
568 896
569 355
571 900
574 353
575 896
579 353
579 899
584 350
584 901
589 345
589 902
592 906
594 343
597 906
598 911
599 343
601 915
604 343
606 915
609 343
609 919
613 922
614 340
617 925
619 338
620 929
624 338
624 932
627 936
629 338
632 936
634 335
637 936
639 333
642 936
644 333
645 940
649 330
650 941
653 327
655 937
657 323
658 941
661 945
662 323
665 319
665 942
670 318
670 944
674 947
675 318
677 951
680 318
682 951
684 315
687 951
689 314
690 955
691 319
695 956
696 318
700 956
701 318
704 959
705 321
709 961
710 319
714 960
715 320
718 324
719 962
722 966
723 323
727 965
728 324
731 328
731 961
733 966
736 329
736 970
740 332
740 967
745 333
745 969
749 972
750 333
752 976
755 333
757 976
760 333
760 980
765 333
765 977
770 333
770 979
775 333
775 981
779 984
780 333
784 986
785 333
789 986
790 333
794 986
795 333
799 987
800 333
802 991
805 333
807 991
810 333
812 991
815 333
815 995
820 333
820 993
825 335
825 991
828 339
830 991
833 338
834 994
838 339
839 996
843 338
844 994
848 338
848 991
851 995
853 338
856 996
858 339
860 999
861 343
865 1001
866 343
870 997
871 343
875 999
876 343
880 1001
881 344
885 347
885 1001
889 1004
890 348
894 1004
895 348
896 996
900 348
900 999
904 1002
905 350
907 1006
909 353
910 1002
914 354
915 1004
917 358
920 1006
922 359
925 1006
926 362
930 1006
931 363
934 1009
935 366
939 1009
940 368
943 1006
945 370
948 374
948 1006
951 378
951 1010
955 1007
956 378
959 1010
960 381
964 384
964 1009
968 1006
969 384
971 1010
972 388
975 392
976 1011
980 393
980 1014
985 395
985 1016
990 394
990 1013
995 395
995 1014
999 398
1000 1016
1004 395
1005 1016
1009 394
1010 1016
1011 399
1014 1019
1016 398
1019 1019
1021 398
1021 1011
1025 401
1025 1014
1026 406
1030 1016
1031 404
1034 1019
1035 407
1039 1020
1040 408
1044 1021
1045 408
1049 1022
1050 410
1053 1025
1053 1147
1053 1162
1054 413
1054 1152
1056 1021
1057 1143
1057 1156
1057 1165
1058 1133
1058 1138
1059 414
1060 1024
1061 419
1061 1129
1062 1166
1063 1117
1063 1122
1064 423
1064 1027
1065 1170
1067 1031
1067 1113
1068 1108
1069 424
1069 1173
1071 1104
1072 1031
1073 1176
1073 1181
1073 1186
1074 424
1076 1103
1076 1171
1076 1190
1077 428
1077 1031
1078 1036
1080 432
1080 1099
1081 1040
1081 1191
1083 1092
1084 435
1084 1044
1085 1194
1087 1088
1088 438
1088 1052
1089 1046
1090 1084
1090 1196
1092 1055
1093 439
1095 1059
1095 1083
1095 1191
1096 443
1098 1063
1098 1078
1099 1068
1099 1194
1100 446
1101 1074
1104 449
1104 1196
1107 453
1108 1199
1109 1204
1110 457
1111 462
1114 1204
1115 465
1118 1201
1119 468
1123 1200
1124 469
1125 1191
1126 474
1126 1186
1126 1196
1127 479
1131 482
1131 487
1131 1186
1135 490
1135 1183
1138 494
1138 1187
1138 1192
1141 498
1141 1176
1142 1195
1145 501
1145 1199
1149 504
1149 1202
1152 508
1152 1206
1155 512
1155 1202
1159 515
1160 1201
1162 519
1165 1197
1166 522
1166 1186
1166 1191
1171 524
1171 1190
1175 527
1175 1187
1176 532
1179 1184
1181 534
1183 1181
1185 545
1186 536
1186 1185
1189 548
1191 1186
1194 549
1195 1182
1197 553
1200 557
1200 1181
1204 560
1204 1184
1207 564
1209 1184
1211 1176
1212 563
1215 567
1215 1172
1219 570
1220 1174
1221 1026
1222 574
1225 1022
1225 1172
1226 577
1226 1028
1226 1166
1230 580
1230 1020
1230 1031
1230 1162
1233 584
1234 1034
1234 1159
1235 1020
1236 588
1237 1038
1237 1155
1240 591
1240 1020
1240 1042
1241 1146
1241 1151
1245 593
1245 1021
1245 1043
1246 1146
1250 595
1250 1017
1250 1045
1250 1142
1251 1050
1251 1136
1253 599
1254 1014
1255 1053
1255 1106
1255 1132
1256 603
1256 1086
1256 1091
1256 1121
1256 1126
1258 1011
1259 1095
1259 1109
1260 606
1260 1055
1260 1082
1260 1102
1260 1117
1261 611
1261 1015
1261 1066
1261 1071
1261 1076
1263 1059
1265 1012
1266 613
1269 1009
1270 616
1272 1005
1274 619
1276 996
1276 1001
1277 623
1280 627
1281 632
1281 996
1285 635
1286 995
1288 639
1291 643
1291 648
1291 996
1295 651
1296 996
1299 654
1301 996
1302 658
1305 662
1306 995
1309 665
1309 999
1312 669
1314 1001
1316 672
1316 677
1319 1001
1320 680
1321 685
1324 689
1324 1001
1326 694
1327 699
1329 1002
1331 702
1331 707
1331 712
1332 1006
1335 715
1337 1006
1338 719
1340 1010
1341 723
1341 728
1341 733
1345 736
1345 1011
1346 741
1346 746
1349 750
1349 1014
1351 755
1351 760
1354 764
1354 1016
1356 769
1356 774
1356 779
1356 784
1357 789
1359 1017
1361 792
1361 797
1361 802
1361 807
1361 812
1361 817
1361 822
1362 1021
1365 825
1365 831
1366 836
1366 841
1366 846
1367 1021
1369 850
1370 860
1370 865
1370 1025
1371 855
1371 870
1371 875
1371 880
1371 885
1371 926
1371 931
1371 936
1371 941
1374 889
1374 945
1375 1026
1376 894
1376 926
1376 950
1376 955
1379 959
1380 897
1380 922
1380 1026
1382 963
1384 900
1384 919
1385 967
1385 1026
1386 911
1387 904
1389 970
1390 908
1390 1026
1391 975
1394 979
1395 1026
1397 983
1400 987
1400 1026
1401 992
1405 995
1405 1026
1408 999
1410 1022
1411 1003
1411 1008
1411 1013
