4 1732
4 1742
4 1752
4 1762
4 1772
9 1707
9 1717
10 1780
14 1697
19 1682
20 1780
24 1667
29 1775
32 1659
34 1632
34 1642
38 1770
39 1622
44 1612
47 1765
52 1604
54 1592
56 1760
62 1584
64 1572
66 1760
69 1552
69 1562
75 1750
77 1544
82 1534
84 1745
90 1526
90 1735
98 1519
100 1730
102 1509
107 1499
110 1725
115 1491
120 1720
123 1484
130 1476
130 1720
135 1710
138 1469
142 1459
145 1705
149 1447
154 1437
155 1705
162 1429
164 1700
167 1419
173 1695
174 1407
183 1693
184 1397
192 1389
193 1690
197 1379
203 1690
204 1362
212 1685
214 1357
221 1680
224 1347
231 1680
234 1337
241 1680
244 1332
250 1675
252 1324
260 1675
262 1319
270 1311
270 1670
278 1304
280 1670
287 1299
290 1670
296 1294
300 1670
304 1287
310 1670
312 1279
320 1271
320 1670
330 1266
330 1670
338 1259
340 1670
345 1251
350 1670
353 1244
359 1675
362 1239
369 1675
370 1231
379 1675
380 1226
388 1219
389 1675
397 1214
398 1680
405 1206
408 1680
415 1201
417 1685
423 1194
427 1689
432 1189
436 1694
441 1184
446 1698
450 1179
454 1705
459 1172
459 1714
465 1722
467 1164
475 1725
477 1159
485 1151
485 1720
490 1710
495 1146
499 1705
505 1141
505 1695
513 1688
515 1136
523 1129
523 1683
532 1124
533 1680
542 1119
542 1675
552 1114
552 1675
561 1670
562 1114
570 1665
571 1109
580 1665
581 1105
590 1665
591 1104
596 1095
599 1660
606 1094
608 1655
615 1089
618 1655
625 1089
628 1655
635 1086
638 1653
645 1084
648 1650
655 1084
658 1650
665 1084
668 1650
674 1079
677 1645
684 1079
687 1645
693 1074
697 1645
703 1074
707 1645
712 1069
717 1645
722 1069
727 1645
732 1064
737 1649
742 1064
747 1650
752 1064
756 1645
762 1064
765 1650
771 1069
775 1650
781 1069
785 1652
790 1074
795 1655
799 1079
805 1655
808 1084
814 1660
817 1089
824 1660
827 1089
833 1665
837 1089
843 1665
846 1094
852 1670
855 1099
862 1674
865 1099
871 1679
875 1102
881 1683
885 1104
891 1685
894 1109
899 1691
904 1109
906 1699
913 1114
916 1700
922 1119
924 1706
931 1714
932 1119
941 1718
942 1119
950 1723
951 1124
959 1728
960 1129
967 1735
970 1129
976 1740
979 1134
984 1746
988 1139
994 1750
997 1760
998 1140
1005 1767
1008 1144
1014 1772
1017 1149
1022 1779
1027 1149
1029 1787
1037 1149
1037 1794
1044 1802
1046 1154
1049 1811
1054 1820
1055 1159
1063 1825
1065 1159
1073 1825
1074 1164
1080 1810
1084 1166
1085 1785
1090 1775
1090 1810
1093 1791
1094 1169
1095 1801
1098 1768
1103 1174
1103 1758
1110 1750
1113 1175
1115 1740
1123 1179
1125 1730
1133 1180
1134 1725
1140 1715
1142 1185
1148 1708
1152 1189
1158 1703
1162 1189
1165 1690
1171 1194
1174 972
1174 982
1174 992
1174 1002
1174 1012
1174 1022
1174 1032
1174 1042
1175 1690
1179 962
1179 1051
1181 1194
1183 1683
1184 1060
1184 1070
1184 1080
1187 954
1189 1089
1189 1675
1190 1199
1194 1098
1195 946
1197 1669
1199 1107
1200 1202
1203 939
1204 1116
1207 1664
1209 1125
1210 1204
1212 934
1212 1135
1217 1144
1217 1659
1219 1209
1221 1154
1222 934
1227 1655
1229 1160
1229 1209
1232 934
1234 1169
1236 1650
1238 1214
1240 1177
1242 934
1244 1187
1246 1650
1248 1214
1252 934
1252 1194
1255 1645
1256 1204
1257 1219
1262 934
1264 1210
1264 1640
1269 1219
1271 939
1274 1640
1281 939
1284 1637
1291 939
1292 1644
1301 939
1302 1645
1310 1630
1311 939
1319 946
1320 1630
1328 951
1330 1630
1338 954
1340 1630
1348 955
1350 1630
1358 959
1360 1630
1368 960
1370 1630
1378 964
1380 1625
1388 965
1390 1625
1395 973
1399 1630
1405 977
1409 1630
1415 979
1418 1635
1425 979
1428 1635
1433 985
1435 995
1435 1005
1437 1640
1440 1014
1440 1024
1440 1034
1445 1043
1445 1053
1447 1640
1450 1062
1454 977
1454 987
1454 997
1454 1007
1454 1017
1454 1027
1454 1037
1457 1644
1459 967
1459 1046
1459 1056
1464 957
1465 1650
1472 949
1475 1650
1480 941
1485 1650
1488 934
1494 1655
1495 926
1500 916
1504 1655
1508 909
1510 1663
1515 901
1520 891
1520 1665
1528 884
1529 1670
1535 876
1539 1670
1543 869
1548 1675
1550 861
1557 1680
1558 854
1565 846
1567 1684
1573 839
1577 829
1577 1685
1587 824
1587 1689
1594 1697
1595 816
1604 1700
1605 811
1613 804
1613 1705
1622 799
1622 1710
1631 794
1631 1715
1639 1721
1640 789
1649 784
1649 1725
1658 1730
1659 784
1668 1730
1669 784
1675 1738
1678 789
1685 1742
1688 789
1694 1747
1697 794
1704 802
1704 1750
1710 1758
1712 809
1715 819
1715 829
1720 838
1720 848
1720 1760
1725 857
1725 867
1725 877
1725 1085
1725 1095
1729 1765
1730 886
1730 896
1730 906
1730 916
1730 926
1730 1060
1730 1070
1733 936
1735 946
1735 956
1735 966
1735 976
1735 986
1735 996
1735 1006
1735 1016
1735 1026
1735 1036
1735 1046
1735 1099
1739 1765
1745 1099
1749 1765
1754 1092
1759 1765
1764 1087
1769 1077
1769 1765
1777 1069
1779 1765
1782 1059
1787 1049
1789 1765
1792 1039
1799 1022
1799 1765
1807 1014
1808 1770
1812 1004
1817 994
1818 1770
1824 982
1827 1775
1832 974
1834 962
1837 1775
1839 952
1844 942
1847 1775
1849 932
1854 922
1856 1780
1859 912
1864 902
1866 1780
1869 887
1874 877
1876 1780
1879 867
1884 857
1886 1783
1889 847
1894 827
1894 837
1896 1785
1899 817
1904 802
1905 1790
1909 787
1914 777
1914 1795
1919 757
1919 767
1924 742
1924 1795
1929 722
1929 732
1934 702
1934 712
1934 1795
1939 517
1939 527
1939 537
1939 547
1939 557
1939 687
1943 1800
1944 507
1944 566
1944 576
1944 586
1944 596
1944 606
1944 616
1944 632
1944 642
1944 652
1944 662
1944 672
1952 499
1952 1805
1957 489
1959 477
1962 1809
1964 467
1970 1815
1974 464
1979 1820
1984 462
1988 1825
1992 454
1997 1830
2000 446
2007 1834
2010 441
2014 1842
2018 434
2024 422
2024 1845
2034 419
2034 1845
2040 1835
2043 414
2050 1835
2052 409
2060 401
2060 1835
2070 396
2070 1835
2078 389
2080 1837
2085 381
2090 1840
2093 374
2099 362
2099 1845
2104 352
2109 1845
2112 344
2118 1850
2120 336
2128 1850
2130 334
2136 325
2137 1855
2144 319
2147 1855
2153 314
2156 1860
2162 309
2166 1863
2171 304
2175 1868
2179 297
2185 1872
2187 289
2194 1877
2196 284
2204 277
2204 1880
2210 1888
2212 269
2220 1892
2222 264
2229 1897
2231 259
2235 1905
2239 252
2244 1910
2247 244
2250 1918
2257 244
2260 1922
2262 234
2267 1930
2272 229
2272 1939
2279 1947
2281 224
2284 1956
2290 219
2291 1964
2296 1973
2299 212
2300 1983
2305 1992
2309 207
2309 2002
2315 1850
2315 1860
2315 1870
2315 1880
2315 1890
2315 2010
2319 202
2320 1815
2320 1825
2320 1835
2320 1899
2320 1909
2320 1919
2320 1929
2325 1770
2325 1780
2325 1790
2325 1800
2325 1938
2325 1948
2325 1958
2325 2010
2329 197
2330 1540
2330 1550
2330 1560
2330 1570
2330 1580
2330 1590
2330 1750
2330 1760
2330 1967
2330 1977
2333 2003
2334 1987
2335 1525
2335 1599
2335 1609
2335 1619
2335 1740
2337 189
2340 1628
2340 1638
2340 1730
2345 1470
2345 1480
2345 1490
2345 1500
2345 1510
2345 1520
2345 1647
2346 184
2348 1723
2350 1460
2352 1655
2354 177
2354 1715
2355 1450
2355 1665
2360 1400
2360 1410
2360 1420
2360 1430
2360 1440
2360 1674
2360 1684
2360 1694
2360 1704
2364 172
2365 1365
2365 1375
2365 1385
2370 1330
2370 1340
2370 1350
2372 164
2375 1320
2380 1305
2382 159
2385 1295
2390 1280
2391 154
2395 1265
2399 147
2400 1255
2408 1248
2409 142
2413 1238
2417 134
2418 1228
2423 1218
2427 129
2430 1205
2435 1190
2436 124
2440 1180
2444 117
2450 1170
2454 112
2455 1160
2462 104
2463 1153
2465 1140
2472 99
2475 1125
2475 1135
2480 1115
2481 94
2488 1108
2491 90
2495 1100
2500 1085
2501 89
2509 1080
2511 85
2515 1065
2519 77
2525 1055
2529 72
2534 1050
2539 69
2540 1040
2548 1033
2549 69
2555 1025
2559 69
2563 1018
2569 69
2570 1010
2579 69
2580 1005
2588 998
2589 67
2595 990
2599 64
2604 985
2609 64
2613 980
2618 59
2622 974
2628 59
2632 970
2638 59
2642 970
2647 54
2650 885
2650 895
2650 905
2650 915
2650 925
2650 935
2650 945
2650 955
2655 800
2655 810
2655 835
2655 845
2655 855
2655 865
2655 875
2657 54
2660 785
2660 819
2665 770
2667 54
2670 750
2670 760
2675 725
2675 735
2677 54
2680 705
2680 715
2686 49
2688 698
2693 688
2696 49
2700 670
2700 680
2705 660
2706 49
2713 653
2715 44
2715 640
2720 630
2725 44
2725 615
2733 608
2734 39
2738 598
2744 39
2744 590
2750 575
2754 39
2758 568
2763 558
2764 37
2773 553
2774 34
2778 543
2783 533
2784 34
2790 525
2793 29
2800 515
2803 29
2808 508
2812 24
2815 500
2822 24
2825 495
2832 24
2834 490
2840 450
2842 24
2843 485
2845 415
2845 425
2845 435
2845 459
2849 445
2850 365
2850 375
2850 385
2850 395
2850 405
2850 468
2851 19
2855 335
2855 345
2855 355
2855 434
2855 455
2860 305
2860 315
2860 325
2861 19
2865 285
2865 295
2865 434
2865 455
2870 275
2871 19
2875 255
2875 265
2875 437
2875 447
2880 14
2880 240
2885 230
2889 9
2890 220
2895 205
2899 9
2905 195
2909 9
2910 185
2915 175
2919 9
2923 168
2928 158
2929 9
2935 145
2939 9
2940 135
2949 9
2950 125
2959 9
2960 115
2969 9
2970 105
2978 14
2980 100
2985 90
2988 14
2995 90
2998 14
3004 85
3008 14
3013 80
3017 19
3020 70
3027 19
3030 65
3037 19
3039 60
3044 27
3049 60
3054 31
3055 41
3055 51
