669 1132
669 1142
669 1152
674 1122
674 1161
682 1114
684 1165
692 1109
694 1165
702 1109
704 857
704 867
704 1162
709 842
709 876
712 1109
714 827
714 1160
719 817
719 880
722 1109
724 807
724 1160
729 797
729 877
732 1109
734 787
734 1160
739 772
739 872
742 1109
744 762
744 1160
749 867
752 754
752 1109
754 1160
757 744
759 862
762 734
762 1109
764 287
764 297
764 307
764 317
764 327
764 337
764 347
764 357
764 367
764 377
764 717
764 1160
769 272
769 386
769 702
769 857
772 1109
774 262
774 395
774 687
774 1160
777 405
777 850
779 252
779 672
781 1114
784 657
784 1160
786 845
787 244
787 409
789 637
789 647
790 1119
794 627
794 1160
795 236
795 840
796 414
798 1125
799 602
799 612
800 226
803 1134
804 420
804 577
804 587
804 835
804 1160
808 219
809 552
809 562
810 428
812 829
813 1134
814 542
814 1160
817 214
818 435
819 517
819 527
819 1012
819 1022
819 1032
819 1042
819 1052
820 820
823 1134
824 497
824 507
824 992
824 1002
824 1061
824 1160
826 209
827 440
828 813
829 487
829 957
829 967
829 977
831 1069
833 1134
834 448
834 458
834 468
834 478
834 942
834 1160
835 805
836 209
839 922
839 932
839 1075
843 1134
844 810
844 907
844 1160
845 1083
846 209
849 897
850 818
852 1129
853 1090
853 1165
854 828
855 838
856 209
857 889
859 848
859 858
859 868
859 878
860 1121
862 1095
863 1165
866 209
868 1114
869 1103
873 1165
876 209
883 1165
885 1075
885 1085
885 1095
885 1105
885 1115
885 1125
885 1135
886 209
890 1065
892 1159
893 1141
895 1050
896 209
898 1150
904 1045
906 209
914 1045
916 209
924 1045
925 214
934 1045
935 217
944 222
944 1045
954 224
954 1045
963 1040
964 226
973 231
973 1040
974 1147
979 1137
979 1156
983 235
983 1040
984 1127
986 1164
989 1117
990 243
993 1040
994 1050
994 1107
996 1165
998 250
999 1059
999 1069
999 1079
999 1089
1000 670
1002 260
1005 270
1006 1165
1007 280
1010 290
1010 300
1010 310
1010 320
1010 330
1010 340
1010 350
1015 359
1016 1165
1020 660
1024 364
1025 650
1025 1115
1025 1125
1026 1165
1029 352
1030 664
1030 725
1030 735
1030 745
1030 755
1030 765
1030 775
1030 785
1032 795
1033 643
1033 1108
1035 805
1035 815
1035 825
1035 1129
1036 1165
1037 344
1037 835
1038 633
1038 1098
1039 327
1039 669
1039 720
1040 845
1042 855
1044 317
1045 625
1045 865
1045 1090
1045 1129
1046 1165
1048 674
1049 720
1050 874
1050 884
1050 894
1052 309
1053 618
1053 1083
1055 903
1055 913
1055 1129
1056 1165
1057 679
1058 1073
1059 720
1060 301
1060 605
1060 922
1060 932
1063 1063
1064 729
1065 291
1065 941
1065 1050
1065 1129
1066 684
1066 1165
1068 598
1068 951
1070 737
1070 1030
1070 1040
1073 284
1073 588
1075 689
1075 959
1075 1010
1075 1020
1075 1126
1076 1165
1077 745
1082 279
1083 583
1083 695
1084 964
1085 1010
1085 1124
1086 1165
1087 749
1090 575
1090 703
1092 274
1094 757
1094 964
1095 1010
1095 1124
1096 1165
1100 565
1100 707
1101 269
1102 764
1104 964
1105 555
1105 716
1105 1010
1105 1124
1106 774
1106 1165
1110 264
1110 530
1110 540
1110 725
1111 783
1114 964
1115 734
1115 1010
1115 1124
1116 1165
1119 257
1119 790
1120 530
1120 743
1123 969
1125 798
1125 1012
1125 1124
1126 1165
1128 749
1129 252
1130 530
1133 805
1133 970
1135 1015
1135 1124
1136 1165
1137 754
1139 249
1140 530
1142 810
1142 975
1144 762
1144 1020
1145 1121
1146 1165
1149 249
1149 535
1149 818
1150 982
1152 769
1154 1020
1155 1119
1156 1165
1157 825
1159 249
1159 535
1160 984
1162 769
1164 1020
1165 1116
1165 1170
1167 824
1168 540
1169 249
1170 984
1172 769
1174 1020
1175 810
1175 1114
1175 1170
1178 540
1179 249
1180 984
1182 769
1184 1020
1185 810
1185 1114
1185 1170
1188 540
1189 249
1190 984
1191 774
1194 1020
1195 810
1195 1117
1195 1170
1198 540
1199 251
1200 984
1201 774
1202 1125
1203 1015
1204 815
1205 1165
1207 1134
1208 540
1209 254
1210 981
1210 1144
1210 1154
1211 774
1212 1009
1213 820
1218 540
1218 974
1219 256
1220 779
1220 1000
1222 825
1224 962
1228 538
1229 259
1230 782
1230 995
1232 825
1232 954
1235 530
1238 264
1238 988
1239 787
1239 942
1242 824
1243 523
1245 980
1247 269
1247 794
1247 934
1250 510
1250 804
1250 815
1255 275
1255 500
1255 926
1255 975
1260 284
1260 916
1263 493
1265 293
1265 970
1268 909
1270 302
1270 485
1274 312
1275 475
1275 965
1277 904
1279 321
1279 887
1283 468
1283 958
1284 832
1284 842
1284 852
1284 862
1284 872
1285 329
1288 948
1289 792
1289 802
1289 812
1289 822
1290 338
1290 455
1293 938
1294 777
1295 445
1295 925
1298 345
1299 757
1299 767
1300 430
1300 910
1304 747
1305 353
1305 420
1305 900
1309 737
1310 362
1310 410
1310 890
1314 372
1315 382
1315 392
1315 805
1315 815
1315 825
1315 835
1315 845
1315 855
1315 865
1315 875
1317 729
1320 755
1320 765
1320 775
1320 785
1320 795
1325 721
1328 748
1333 714
1335 740
1342 709
1345 735
1352 704
1355 730
1362 699
1364 725
1372 694
1374 722
1382 689
1384 717
1391 694
1392 709
1399 701
