75 1596
75 1631
75 1641
75 1651
75 1661
75 1671
75 1681
75 1691
75 1701
75 1711
75 1721
75 1731
75 1741
75 1751
75 1761
75 1771
75 1781
75 1791
75 1801
79 1606
79 1811
80 1616
80 1821
80 1831
83 1589
84 1841
85 1521
85 1531
85 1566
85 1576
85 1851
89 1541
90 1551
90 1860
93 1514
95 1869
100 1496
100 1506
100 1878
105 1481
105 1887
110 1471
110 1896
114 1906
115 1456
120 1441
120 1914
125 1426
125 1923
130 1411
130 1932
130 2561
130 2571
135 1396
135 2591
135 2601
136 2579
138 1939
138 2554
140 1386
141 2609
145 1371
145 1947
145 2381
145 2391
145 2401
145 2411
145 2421
145 2481
145 2506
145 2516
145 2526
145 2546
145 2619
145 2629
145 2639
145 2649
149 2431
149 2491
150 1356
150 1956
150 2658
151 2534
153 2374
153 2474
154 1966
155 1341
155 2336
155 2361
155 2439
155 2449
155 2459
158 2664
159 1975
160 1331
160 2326
160 2351
163 1985
165 1321
165 1995
165 2311
165 2672
165 2682
165 2692
170 1311
170 2004
170 2701
173 2304
175 1301
175 2013
175 2023
175 2286
180 1286
180 2032
180 2705
183 2279
185 1271
185 2041
190 1261
190 2050
190 2271
190 2705
195 1251
196 2058
198 2264
200 1236
200 2086
200 2096
200 2161
200 2171
200 2221
200 2231
200 2241
200 2251
200 2610
200 2620
200 2705
204 2065
205 1226
205 2629
206 2104
206 2179
208 2079
208 2154
208 2215
208 2603
210 1216
210 2126
210 2136
210 2700
213 2635
215 1206
215 2109
215 2520
215 2595
215 2645
215 2655
215 2680
215 2690
216 2180
216 2530
216 2665
218 2214
220 1196
223 2513
223 2588
223 2673
224 2186
224 2536
225 2196
225 2206
225 2495
225 2546
225 2556
225 2566
225 2576
228 1189
233 1179
233 2488
235 1161
235 2410
235 2420
235 2430
235 2440
235 2450
235 2460
235 2470
243 1155
243 2403
250 1146
250 2380
250 2390
255 1136
258 2373
260 2360
263 1129
265 2350
268 1119
273 1109
273 2343
280 1096
280 2285
280 2295
280 2305
280 2335
285 2314
288 1089
288 2278
288 2328
295 1081
295 2260
295 2270
300 2250
303 1074
305 2220
305 2230
305 2240
308 1064
313 2213
315 1056
315 2160
315 2170
315 2180
315 2190
315 2200
323 1049
324 2155
328 1039
330 2163
335 1031
335 2172
343 1024
343 2179
350 1016
350 2187
355 2196
358 1009
361 2204
365 1001
369 2210
373 994
375 2218
380 986
383 2224
388 979
390 2232
395 971
398 2239
403 964
405 2247
410 956
410 2256
414 2266
419 2275
420 951
420 2285
425 2294
425 2304
428 944
430 2313
430 2323
430 2333
433 934
435 2342
440 926
440 2351
446 2359
450 921
451 2368
455 2378
458 914
463 2384
465 901
466 2394
470 2404
473 894
475 2413
480 886
480 2422
485 2431
488 879
489 2441
494 2450
495 871
498 2460
503 2469
505 866
510 2477
510 2487
510 2497
513 859
518 2504
520 851
520 2514
521 2524
528 844
529 2530
530 2540
535 836
535 2549
535 2559
540 2568
540 2578
540 2601
540 2611
540 2621
540 2631
540 2641
540 2651
540 2661
543 829
545 2587
545 2670
545 2946
550 821
550 2679
551 2954
553 2939
555 2688
555 2911
555 2921
555 2986
555 2996
555 3006
555 3151
558 814
559 3161
560 2697
560 2707
560 2717
560 2856
560 2866
560 3015
560 3141
561 2955
563 2904
563 2979
565 806
565 2826
565 2836
565 2846
565 2875
565 2885
566 3023
566 3169
568 2724
568 3134
569 2961
570 2734
570 2744
570 2754
570 2764
570 2774
570 2784
570 2794
570 2804
570 2814
570 2971
570 3071
570 3081
570 3106
570 3116
573 800
574 3030
574 3091
576 3170
578 3064
580 3038
580 3048
582 795
584 3176
589 3185
591 790
595 3193
599 783
603 3199
605 3209
609 778
610 3218
615 3227
615 3237
616 770
623 3244
625 765
630 3252
634 760
640 3255
643 755
650 3255
652 750
659 3260
661 745
665 3268
670 740
675 3270
679 735
685 3270
688 730
695 3270
697 725
705 3270
706 720
715 3271
716 715
721 3279
726 710
731 3280
736 710
740 3275
745 705
749 3270
755 701
759 3270
765 696
769 3270
775 691
779 3270
785 686
789 3270
795 685
799 3270
804 680
809 3270
813 675
819 3270
822 670
829 3270
831 665
839 3267
840 2715
840 2725
840 2735
841 660
845 2695
845 2705
845 2744
845 2754
845 2764
845 2774
845 2784
845 2794
847 3259
850 2675
850 2803
850 2813
850 2823
851 660
853 2688
854 2833
855 2665
855 2843
855 2853
855 2863
857 3255
859 2873
860 655
860 2600
860 2630
860 2640
860 2650
864 2882
865 2609
867 3255
868 2623
870 655
870 2600
870 2945
871 2890
871 2955
876 3250
878 2938
879 2896
879 2961
880 651
880 2600
880 2906
880 2916
880 2926
880 2985
880 2995
880 3005
880 3015
880 3170
881 3025
885 2969
885 3179
885 3245
888 2979
889 3031
890 650
890 2600
895 3039
895 3185
895 3245
900 650
900 2600
900 3048
904 3250
908 3055
910 650
910 2601
914 3063
914 3247
920 650
920 2605
922 3070
924 3245
925 3080
929 645
929 2610
930 3089
932 3239
935 2618
939 645
940 2627
940 3090
940 3230
948 3223
949 643
950 2630
950 3090
958 3220
959 640
959 2635
960 2645
960 3090
963 2655
967 3214
968 3096
969 640
970 2663
970 3106
970 3116
970 3126
970 3136
970 3146
970 3200
976 3154
978 2669
978 3193
979 640
983 3183
984 3161
985 2677
988 645
990 3169
993 2684
997 640
1000 2692
1007 640
1008 2699
1015 2707
1017 640
1020 2716
1025 2725
1027 640
1030 2734
1035 2743
1037 640
1043 2749
1046 645
1046 2759
1054 2765
1056 645
1058 2775
1065 2783
1066 645
1070 2792
1075 640
1075 2801
1084 2806
1085 636
1089 2815
1093 630
1095 2823
1100 2832
1103 630
1108 2839
1110 596
1110 606
1113 629
1114 616
1115 2847
1118 590
1120 2856
1126 2864
1128 589
1134 2870
1135 581
1140 566
1140 2878
1145 556
1145 2887
1153 549
1153 2894
1156 2904
1160 541
1161 2913
1165 2923
1168 534
1173 2929
1176 2939
1178 529
1180 2949
1185 521
1185 2958
1193 2964
1195 516
1200 2972
1203 509
1208 2979
1210 2989
1211 2999
1213 505
1219 3005
1222 500
1225 2310
1225 3013
1230 2319
1231 495
1233 2303
1233 3019
1235 2328
1235 2338
1236 485
1239 2348
1240 2295
1240 2358
1243 3020
1245 480
1245 2367
1250 2295
1250 2376
1250 3028
1253 474
1255 2385
1258 2288
1260 466
1260 2394
1260 2404
1260 3030
1265 2280
1265 2413
1269 3035
1270 461
1270 2422
1274 2432
1275 2280
1278 454
1279 2441
1279 3037
1283 2451
1285 2280
1287 3030
1288 449
1288 2460
1291 2470
1293 2273
1295 441
1297 3029
1299 2476
1303 2270
1303 2486
1305 436
1305 3020
1310 2494
1313 2270
1313 3013
1315 431
1315 2503
1320 3005
1322 2264
1323 2510
1325 426
1326 2520
1330 3005
1332 2259
1334 2526
1335 425
1338 2536
1338 2998
1342 2255
1344 420
1345 2544
1345 2990
1351 2250
1353 414
1353 2550
1353 2983
1359 2558
1360 2245
1363 409
1363 2980
1365 2566
1370 2240
1371 2574
1372 2974
1373 404
1375 2584
1378 2233
1380 2593
1382 2970
1383 399
1388 2230
1388 2600
1391 2610
1392 2970
1393 394
1396 2619
1398 2230
1400 2629
1400 2945
1401 2955
1401 2965
1403 389
1407 2224
1408 2635
1410 2945
1411 2645
1413 384
1416 2654
1417 2220
1418 2938
1420 376
1420 2664
1425 2930
1427 2220
1430 371
1430 2665
1433 2923
1436 2215
1438 2671
1440 366
1443 2920
1445 2210
1448 2675
1450 361
1452 2914
1454 2205
1455 2895
1457 2670
1460 360
1464 2205
1465 2895
1466 2665
1469 355
1474 2202
1475 2895
1476 2665
1478 350
1482 2195
1485 2890
1486 2665
1488 349
1492 2195
1493 2883
1496 2669
1498 345
1500 2875
1502 2194
1504 2676
1505 2865
1508 345
1510 2185
1510 2684
1513 2858
1518 345
1518 2690
1520 2185
1520 2850
1525 2194
1526 2204
1528 344
1528 2690
1529 2845
1534 2210
1534 2698
1535 2220
1538 340
1538 2230
1539 2842
1542 2705
1547 2834
1548 340
1548 2230
1552 2705
1555 2825
1558 339
1558 2234
1559 2713
1560 2723
1560 2733
1560 2805
1560 2815
1564 2743
1565 2242
1568 335
1568 2798
1570 2751
1570 2761
1570 2771
1570 2781
1575 2245
1577 330
1584 2250
1586 325
1593 2255
1596 325
1603 2255
1606 320
1612 2260
1615 315
1621 2265
1625 315
1631 2268
1635 311
1641 2270
1643 305
1650 2275
1653 305
1660 2276
1663 305
1669 2281
1673 304
1679 2285
1683 300
1688 2290
1692 295
1697 2295
1702 295
1706 285
1707 2299
1715 280
1717 2300
1720 2310
1725 280
1726 2318
1735 276
1736 2320
1743 270
1746 2320
1752 265
1756 2320
1761 260
1764 2326
1770 255
1771 2334
1779 2340
1780 251
1785 2348
1790 246
1793 2354
1798 240
1803 2355
1807 235
1810 2363
1815 2372
1816 230
1820 2381
1824 223
1825 2390
1829 213
1831 2398
1835 181
1835 201
1839 191
1839 2405
1843 174
1848 2410
1850 166
1855 2418
1858 159
1865 2421
1868 154
1874 2426
1875 146
1883 139
1884 2430
1890 131
1893 2435
1900 126
1900 2443
1908 2449
1910 121
1915 2457
1920 120
1925 2461
1930 120
1931 2469
1939 2475
1940 116
1945 2483
1950 115
1955 2486
1960 115
1961 2494
1969 120
1969 2500
1975 2508
1978 125
1983 2514
1985 2524
1987 130
1993 2530
1994 138
2002 145
2003 2534
2005 2544
2005 2554
2005 2564
2006 2574
2009 153
2014 2580
2017 160
2020 2588
2025 2597
2027 160
2033 2604
2036 155
2040 2612
2040 2622
2046 155
2048 2629
2055 2637
2056 155
2063 2644
2066 155
2073 2645
2075 160
2080 2653
2084 165
2085 2662
2094 165
2095 2666
2101 2674
2104 166
2109 2680
2114 170
2115 2688
2120 2697
2123 175
2128 2703
2130 1310
2131 1320
2133 175
2135 1295
2138 2704
2141 1324
2143 175
2145 1295
2145 2712
2150 1329
2152 180
2153 2719
2155 1295
2155 2729
2156 2739
2158 1335
2161 185
2163 1288
2164 1343
2164 2745
2170 2753
2171 185
2172 1350
2173 1285
2176 1360
2180 1370
2180 2755
2181 189
2183 1289
2185 1379
2185 1389
2189 2760
2190 1297
2190 1307
2190 1398
2190 1408
2190 2770
2191 190
2194 1418
2195 1316
2195 1428
2195 2779
2200 195
2200 1437
2200 2788
2200 2798
2200 2808
2201 1324
2204 1447
2205 2817
2209 1330
2209 1456
2210 191
2210 1466
2213 2824
2215 1338
2215 1348
2215 1475
2215 2834
2220 193
2220 1357
2220 1367
2220 1484
2220 1494
2225 1376
2225 1503
2225 2835
2228 200
2229 1386
2229 1513
2230 1523
2234 1533
2235 1394
2235 1543
2235 2836
2237 205
2239 1553
2240 1403
2240 1563
2241 2844
2244 1573
2245 1412
2245 1422
2245 1432
2245 1583
2245 2854
2246 210
2250 1592
2250 1602
2250 2863
2253 1439
2254 216
2256 1449
2256 1610
2260 224
2260 234
2260 1459
2260 1620
2260 1630
2260 2860
2265 1468
2265 1639
2268 240
2269 2855
2270 1477
2270 1487
2270 1497
2270 1648
2270 1658
2275 1667
2275 1677
2277 245
2278 1504
2278 2860
2281 1685
2284 253
2285 1512
2285 1695
2285 1705
2288 2864
2290 1521
2290 1714
2290 1724
2292 260
2295 1530
2295 1733
2295 1743
2297 2859
2298 1540
2299 268
2299 1753
2305 276
2305 1761
2305 1771
2305 1781
2307 1545
2307 2855
2308 286
2308 1791
2310 1801
2313 1811
2315 1821
2316 2850
2317 1545
2318 290
2318 1831
2320 1841
2320 1851
2320 1861
2320 1871
2320 1881
2320 1891
2320 1901
2320 1911
2320 2175
2320 2185
2320 2195
2321 2205
2323 1921
2324 2842
2325 1551
2325 1931
2325 1941
2325 1951
2325 1961
2325 1971
2325 1981
2325 1991
2325 2001
2325 2011
2325 2021
2325 2031
2325 2041
2325 2051
2325 2061
2325 2071
2325 2081
2325 2091
2325 2101
2325 2115
2325 2125
2325 2135
2325 2145
2325 2155
2325 2165
2327 295
2329 1561
2331 305
2331 2205
2332 2834
2336 1569
2339 311
2340 2585
2340 2595
2341 2205
2342 2830
2343 321
2345 2604
2346 1570
2348 330
2348 2578
2350 2550
2350 2560
2351 2205
2351 2825
2355 2605
2356 1570
2358 330
2359 2545
2360 1580
2361 2209
2361 2823
2363 2611
2364 338
2365 2553
2365 2621
2365 2631
2365 2641
2365 2651
2365 2661
2366 1588
2369 2216
2369 2830
2370 1598
2372 345
2373 2559
2375 2224
2375 2569
2375 2665
2376 2579
2378 1604
2379 353
2379 2830
2383 2671
2384 2585
2385 2221
2387 2824
2388 1605
2389 355
2390 2593
2390 2679
2395 2223
2397 2820
2398 360
2398 1605
2398 2599
2398 2685
2400 370
2400 380
2400 390
2400 400
2400 2232
2404 2693
2405 2607
2406 2240
2406 2815
2408 1605
2409 405
2410 2701
2410 2711
2413 2614
2414 2807
2416 2244
2416 2719
2417 1610
2419 406
2420 416
2420 426
2420 436
2420 446
2420 456
2420 2254
2420 2264
2420 2274
2421 2620
2424 2725
2424 2805
2425 465
2426 1615
2428 2280
2430 474
2431 2620
2433 2720
2434 1621
2434 2288
2434 2805
2438 480
2441 2620
2442 2295
2442 2799
2443 2720
2444 488
2444 1625
2445 498
2445 508
2445 518
2449 528
2449 2303
2449 2728
2450 2615
2450 2790
2453 1630
2454 537
2454 2312
2454 2737
2455 2595
2455 2605
2455 2747
2455 2757
2455 2767
2455 2777
2461 545
2461 2320
2462 1635
2463 2588
2465 555
2465 565
2465 575
2465 585
2466 595
2469 2326
2470 2580
2471 604
2471 1640
2478 2573
2479 611
2479 1646
2479 2330
2480 2520
2480 2530
2480 2540
2480 2550
2480 2560
2485 619
2486 1654
2488 2335
2488 2513
2490 628
2490 638
2490 2345
2490 2355
2490 2365
2490 2375
2490 2385
2490 2445
2490 2495
2491 1663
2495 647
2495 2394
2495 2454
2498 2438
2498 2488
2499 657
2499 1670
2500 2463
2500 2473
2503 2400
2504 666
2505 676
2505 1678
2505 2430
2509 2408
2510 685
2511 695
2513 1684
2513 2423
2515 705
2515 895
2520 714
2520 1692
2525 723
2528 1699
2533 730
2535 1707
2539 738
2540 1716
2545 1725
2545 1735
2545 1745
2549 740
2551 1753
2559 740
2559 1760
2565 1768
2565 1778
2568 745
2570 1787
2574 753
2575 1796
2580 1805
2583 1815
2584 755
2590 1823
2593 760
2595 770
2595 1832
2596 780
2600 1841
2604 786
2605 1850
2605 1860
2605 1870
2605 1880
2608 1890
2610 794
2615 803
2615 1898
2620 812
2623 1904
2625 1914
2625 1924
2625 1934
2625 1944
2625 1954
2626 820
2630 1963
2631 829
2640 1960
2641 830
2649 1965
2650 835
2650 845
2655 854
2655 1973
2660 863
2660 873
2660 1982
2660 1992
2660 2002
2660 2012
2660 2022
2668 880
2668 2029
2671 890
2676 899
2678 2030
2680 909
2685 918
2685 2038
2685 2048
2685 2058
2685 2068
2685 2078
2685 2088
2685 2098
2690 927
2693 2105
2694 937
2695 947
2700 956
2700 966
2703 2105
2706 974
2710 984
2710 2113
2715 993
2715 2122
2720 1002
2720 1012
2720 2131
2720 2141
2720 2151
2720 2161
2720 2171
2724 2181
2726 1020
2730 2189
2730 2199
2730 2209
2730 2219
2731 1029
2735 1039
2735 2228
2740 1048
2743 2234
2745 1057
2745 1370
2745 1380
2746 1390
2750 1066
2750 2242
2753 1363
2754 1396
2755 1075
2755 1345
2760 1084
2760 1404
2760 2245
2765 1093
2765 1346
2765 1413
2765 1423
2765 1433
2765 1443
2765 1453
2769 1463
2770 1102
2770 1355
2770 2245
2775 2254
2775 2264
2775 2274
2775 2284
2776 1110
2776 1363
2779 1466
2780 2293
2784 1116
2785 2302
2786 1365
2788 1471
2790 1124
2790 1134
2790 1481
2790 1570
2790 1580
2790 1590
2790 2311
2791 1600
2795 1143
2795 1360
2795 1490
2795 2320
2800 1369
2800 1570
2800 1605
2800 2329
2800 2339
2800 2349
2801 1379
2803 1150
2805 1490
2808 2355
2809 1158
2810 1168
2810 1570
2810 1608
2810 1618
2810 1628
2810 1638
2810 1648
2810 1658
2811 1380
2813 1484
2814 1178
2818 1665
2818 2355
2820 1570
2821 1383
2821 1675
2822 1185
2823 1480
2825 2363
2826 1195
2829 1390
2829 1681
2830 1571
2830 2372
2833 1480
2835 1689
2835 1699
2835 1709
2835 1719
2835 1729
2835 1739
2835 2381
2836 1199
2836 1579
2838 1395
2839 2391
2842 1475
2843 1745
2845 1204
2846 1580
2846 2399
2848 1399
2849 1753
2851 1470
2854 2405
2855 1208
2855 1407
2855 1575
2857 1760
2859 1476
2860 1770
2860 1780
2860 1790
2860 1800
2863 1414
2864 1213
2864 1570
2864 2405
2865 1809
2869 1480
2870 1835
2870 1845
2870 1855
2870 2413
2870 2423
2871 1420
2871 1865
2872 1220
2873 1815
2874 1567
2875 2432
2878 1474
2878 1828
2879 1871
2880 1881
2880 2441
2881 1225
2881 1420
2882 1559
2884 2451
2885 1466
2885 1890
2890 1230
2890 1550
2890 1899
2890 1909
2890 1919
2890 1929
2891 1423
2894 2455
2895 1465
2895 1938
2898 1236
2899 1430
2899 1545
2903 1945
2903 2460
2905 1244
2905 1465
2905 1955
2905 1995
2905 2005
2906 1965
2906 2015
2909 1430
2909 1542
2910 2468
2913 1250
2913 1988
2914 1971
2914 2021
2915 1438
2915 1465
2915 1520
2915 1530
2915 2477
2915 2487
2915 2497
2919 1258
2920 2029
2920 2506
2923 1444
2923 1471
2923 1513
2925 2038
2925 2048
2925 2058
2925 2068
2925 2515
2927 1265
2928 2525
2929 2078
2930 1452
2930 1479
2930 1505
2930 2095
2931 2105
2934 1273
2935 2086
2938 1485
2938 1498
2938 2523
2939 2111
2940 1281
2940 1455
2940 2121
2940 2131
2940 2141
2940 2151
2946 1289
2946 2159
2948 2524
2949 1460
2950 2169
2954 1296
2955 2178
2955 2532
2959 1462
2960 1304
2960 2187
2960 2197
2960 2207
2963 2539
2965 1313
2965 2216
2969 1460
2970 2547
2970 2557
2970 2567
2971 2224
2973 1320
2975 2234
2975 2576
2978 1465
2979 1328
2983 2240
2985 2580
2987 1470
2989 1330
2992 2245
2995 2255
2995 2265
2995 2580
2996 2275
2997 1470
2998 1335
3004 2585
3005 2280
3007 1340
3007 1470
3013 2590
3015 2283
3016 1345
3017 1474
3022 2585
3023 2290
3025 1350
3025 1481
3029 2298
3030 2308
3031 1489
3032 2589
3034 2318
3035 1353
3039 1495
3040 2595
3042 2325
3044 1358
3049 1495
3050 2595
3051 2330
3054 1360
3055 1503
3060 2595
3061 2334
3063 1365
3065 1505
3065 2344
3070 2353
3070 2595
3072 1370
3075 1505
3078 2360
3079 1378
3080 2590
3081 2370
3085 1505
3087 1385
3088 2583
3089 2376
3090 2386
3090 2570
3091 1395
3095 1405
3095 1506
3100 2381
3100 2570
3101 1514
3105 1405
3108 2374
3109 1520
3110 2361
3110 2570
3113 1411
3118 2355
3118 2563
3119 1520
3123 1415
3125 1528
3125 2555
3128 2355
3132 1420
3133 1534
3135 2555
3138 2355
3139 1428
3141 1540
3143 2548
3144 1437
3148 2355
3149 1532
3151 1445
3153 2545
3155 1455
3157 2360
3159 1530
3160 1464
3163 2545
3166 2365
3168 1535
3169 1458
3173 2543
3176 2369
3177 1540
3179 1455
3180 2379
3180 2389
3180 2410
3180 2420
3180 2535
3186 1535
3188 2395
3189 1455
3189 2530
3190 2421
3194 1541
3199 1455
3199 2527
3200 2423
3204 1545
3205 2505
3205 2515
3208 2430
3209 1456
3212 1539
3213 2498
3214 2438
3215 1464
3215 2448
3215 2485
3220 1530
3223 1470
3223 2455
3223 2478
3225 1480
3225 1490
3225 2465
3226 1500
3230 1530
3234 1506
3235 1516
